#Creator: pendulumviewEventBuffer
#Creation time: Sat Apr 16 16:43:29 2011
#Time A	Pos A	Time B	Pos B
#[s]	[au]	[s]	[au]
0.026	640	0.050	500
0.076	615	0.101	533
0.127	588	0.152	568
0.177	552	0.203	604
0.228	524	0.253	639
0.279	491	0.304	669
0.330	456	0.354	692
0.380	432	0.405	705
0.431	411	0.456	725
0.481	402	0.507	724
0.532	396	0.557	724
0.583	399	0.608	714
0.634	410	0.658	692
0.684	427	0.710	669
0.735	449	0.760	635
0.785	478	0.811	600
0.837	509	0.861	564
0.887	535	0.912	527
0.938	576	0.963	496
0.988	605	1.014	468
1.039	636	1.065	446
1.090	654	1.115	431
1.141	667	1.166	426
1.191	676	1.216	427
1.242	675	1.268	428
1.292	669	1.318	461
1.343	654	1.369	479
1.394	639	1.419	510
1.445	607	1.470	539
1.495	578	1.521	575
1.546	548	1.572	616
1.596	512	1.622	643
1.648	486	1.673	673
1.698	460	1.723	699
1.749	431	1.775	716
1.799	411	1.825	726
1.850	406	1.876	728
1.901	403	1.926	723
1.952	413	1.977	714
2.002	416	2.027	687
2.053	432	2.079	659
2.103	457	2.129	628
2.154	482	2.180	594
2.205	515	2.230	558
2.256	545	2.281	525
2.306	578	2.332	494
2.357	608	2.383	465
2.407	628	2.433	444
2.459	650	2.484	427
2.509	663	2.534	421
2.560	673	2.586	427
2.610	675	2.636	438
2.661	662	2.687	455
2.712	646	2.737	487
2.763	626	2.788	507
2.813	599	2.839	548
2.864	571	2.890	579
2.914	539	2.940	616
2.965	511	2.991	649
3.016	479	3.041	678
3.067	455	3.092	701
3.117	430	3.143	717
3.168	416	3.194	728
3.218	410	3.244	731
3.270	404	3.295	718
3.320	407	3.345	706
3.371	423	3.397	685
3.421	443	3.447	659
3.472	463	3.498	626
3.523	492	3.548	591
3.574	527	3.599	556
3.624	553	3.650	525
3.675	581	3.701	488
3.725	610	3.751	463
3.776	636	3.802	442
3.827	652	3.852	431
3.878	665	3.903	425
3.928	669	3.954	429
3.979	663	4.005	440
4.029	651	4.055	456
4.081	643	4.106	484
4.131	616	4.156	513
4.182	592	4.208	547
4.232	561	4.258	583
4.283	536	4.309	624
4.334	502	4.359	645
4.385	475	4.410	678
4.435	449	4.461	704
4.486	432	4.512	712
4.536	418	4.562	726
4.587	417	4.613	728
4.638	412	4.663	719
4.689	417	4.714	703
4.739	429	4.765	682
4.790	449	4.816	652
4.840	476	4.866	620
4.892	501	4.917	586
4.942	529	4.967	552
4.993	560	5.019	518
5.043	588	5.069	484
5.094	613	5.120	463
5.145	635	5.170	444
5.196	651	5.221	427
5.246	661	5.272	419
5.297	664	5.323	430
5.347	656	5.373	448
5.399	650	5.424	462
5.449	637	5.474	484
5.500	607	5.525	518
5.550	578	5.576	552
5.601	561	5.627	588
5.651	528	5.677	623
5.703	497	5.728	655
5.753	470	5.778	681
5.804	448	5.830	705
5.854	429	5.880	722
5.905	413	5.931	727
5.956	413	5.981	723
6.007	414	6.032	716
6.057	423	6.083	701
6.108	437	6.134	678
6.158	463	6.184	650
6.210	486	6.235	616
6.260	506	6.285	581
6.311	535	6.336	547
6.361	563	6.387	514
6.412	591	6.438	482
6.462	617	6.488	458
6.514	637	6.539	438
6.564	651	6.589	425
6.615	655	6.641	427
6.665	661	6.691	436
6.716	653	6.742	446
6.767	642	6.792	469
6.818	625	6.843	491
6.868	602	6.894	523
6.919	577	6.945	556
6.969	546	6.995	592
7.021	520	7.046	626
7.071	488	7.096	656
7.122	466	7.147	683
7.172	444	7.198	704
7.223	428	7.249	719
7.273	419	7.299	718
7.325	413	7.350	722
7.375	419	7.400	713
7.426	428	7.452	696
7.476	443	7.502	674
7.527	469	7.553	647
7.578	487	7.603	612
7.629	514	7.654	579
7.679	547	7.705	547
7.730	574	7.756	510
7.780	601	7.806	478
7.832	616	7.857	459
7.882	640	7.907	441
7.933	652	7.959	427
7.983	658	8.009	428
8.034	661	8.060	430
8.084	650	8.110	447
8.136	637	8.161	466
8.186	617	8.211	496
8.237	592	8.263	533
8.287	568	8.313	559
8.338	542	8.364	593
8.389	514	8.414	626
8.440	485	8.465	658
8.490	459	8.516	685
8.541	445	8.567	705
8.591	429	8.617	716
8.643	419	8.668	720
8.693	418	8.718	719
8.744	424	8.770	710
8.794	432	8.820	695
8.845	450	8.871	662
8.895	472	8.921	639
8.947	497	8.972	607
8.997	521	9.022	576
9.048	553	9.074	540
9.098	581	9.124	508
9.149	602	9.175	481
9.200	621	9.225	458
9.251	640	9.276	441
9.301	650	9.327	434
9.352	659	9.378	431
9.402	652	9.428	441
9.454	643	9.479	452
9.504	629	9.529	475
9.555	610	9.581	504
9.605	586	9.631	533
9.656	560	9.682	562
9.706	531	9.732	600
9.758	502	9.783	636
9.808	479	9.833	660
9.859	455	9.885	684
9.909	435	9.935	703
9.960	422	9.986	714
10.011	421	10.036	719
10.062	420	10.087	714
10.112	425	10.138	706
10.163	440	10.189	687
10.213	454	10.239	664
10.265	480	10.290	636
10.315	499	10.340	604
10.366	532	10.392	565
10.416	558	10.442	542
10.467	583	10.493	512
10.517	611	10.543	475
10.569	628	10.594	458
10.620	645	10.644	442
10.670	651	10.696	435
10.721	653	10.746	433
10.771	647	10.797	442
10.823	642	10.847	457
10.873	629	10.898	476
10.924	600	10.949	505
10.974	581	11.000	535
11.025	553	11.050	565
11.076	525	11.101	601
11.127	498	11.151	632
11.177	472	11.203	661
11.228	452	11.253	681
11.278	435	11.304	701
11.330	427	11.354	712
11.380	420	11.405	715
11.431	421	11.455	712
11.481	429	11.507	701
11.532	443	11.557	684
11.582	460	11.608	659
11.634	482	11.658	630
11.684	509	11.709	593
11.735	538	11.760	567
11.785	566	11.811	541
11.836	592	11.861	502
11.887	614	11.912	483
11.938	633	11.962	461
11.988	646	12.014	450
12.039	650	12.064	440
12.089	653	12.115	438
12.141	647	12.165	446
12.191	638	12.216	462
12.242	620	12.266	483
12.292	598	12.318	506
12.343	579	12.368	539
12.393	545	12.419	567
12.445	523	12.469	602
12.495	492	12.520	631
12.546	467	12.571	659
12.596	446	12.622	691
12.647	433	12.672	702
12.698	424	12.723	706
12.749	421	12.773	709
12.799	423	12.825	707
12.850	431	12.875	696
12.900	441	12.926	679
12.952	466	12.976	654
13.002	492	13.027	625
13.053	516	13.077	594
13.103	542	13.129	563
13.154	571	13.179	535
13.204	597	13.230	504
13.256	619	13.280	480
13.306	637	13.331	459
13.357	649	13.382	443
13.407	653	13.433	445
13.458	653	13.483	444
13.509	646	13.534	453
13.560	637	13.585	468
13.610	610	13.636	488
13.661	591	13.687	516
13.711	566	13.737	545
13.763	540	13.788	575
13.813	510	13.838	604
13.864	482	13.890	636
13.914	457	13.940	663
13.965	440	13.991	683
14.015	429	14.041	697
14.067	421	14.092	703
14.117	419	14.142	706
14.168	424	14.194	702
14.218	434	14.244	687
14.269	450	14.295	671
14.320	473	14.345	644
14.371	496	14.396	620
14.421	522	14.447	590
14.472	552	14.498	558
14.522	582	14.548	530
14.574	608	14.599	502
14.624	622	14.649	479
14.675	635	14.701	461
14.725	646	14.751	448
14.776	654	14.802	443
14.826	655	14.852	450
14.878	643	14.903	457
14.928	629	14.953	471
14.979	609	15.005	495
15.029	586	15.055	515
15.080	559	15.106	547
15.131	533	15.156	580
15.182	505	15.207	609
15.232	482	15.258	637
15.283	454	15.309	662
15.333	442	15.359	687
15.385	421	15.410	695
15.435	420	15.460	701
15.486	421	15.512	693
15.536	424	15.562	700
15.587	437	15.613	681
15.637	458	15.663	661
15.689	475	15.714	642
15.739	500	15.764	609
15.790	527	15.816	589
15.840	554	15.866	551
15.891	583	15.917	524
15.942	602	15.967	500
15.993	626	16.018	479
16.043	649	16.069	462
16.094	654	16.120	457
16.144	658	16.170	449
16.196	648	16.221	452
16.246	644	16.271	462
16.297	625	16.323	479
16.347	606	16.373	502
16.398	581	16.424	529
16.448	553	16.474	554
16.500	526	16.525	581
16.550	499	16.575	615
16.601	473	16.627	639
16.651	452	16.677	669
16.702	438	16.728	680
16.753	426	16.778	691
16.804	419	16.829	698
16.855	418	16.880	696
16.905	421	16.931	689
16.956	438	16.981	677
17.007	457	17.032	650
17.058	477	17.082	635
17.108	506	17.134	602
17.159	533	17.184	582
17.209	559	17.235	541
17.261	586	17.285	526
17.311	611	17.336	493
17.362	623	17.386	479
17.412	647	17.438	462
17.463	653	17.488	453
17.513	655	17.539	456
17.565	646	17.589	456
17.615	644	17.640	467
17.666	621	17.691	485
17.716	596	17.742	510
17.767	577	17.792	530
17.818	555	17.843	560
17.869	521	17.893	587
17.919	494	17.945	615
17.970	468	17.995	642
18.020	446	18.046	661
18.072	429	18.096	683
18.122	419	18.147	689
18.173	416	18.197	692
18.223	418	18.249	691
18.274	425	18.299	683
18.324	444	18.350	669
18.376	460	18.400	650
18.426	483	18.451	626
18.477	506	18.502	600
18.527	537	18.553	573
18.578	562	18.603	548
18.629	590	18.654	521
18.680	615	18.704	493
18.730	632	18.756	483
18.781	647	18.806	470
18.831	652	18.857	449
18.883	653	18.907	455
18.933	638	18.958	463
18.984	638	19.008	472
19.034	617	19.060	490
19.085	591	19.110	512
19.135	575	19.161	538
19.187	540	19.211	563
19.237	515	19.262	595
19.288	489	19.313	618
19.338	470	19.364	640
19.389	443	19.414	663
19.440	427	19.465	675
19.491	418	19.515	684
19.541	417	19.567	688
19.592	416	19.617	687
19.642	428	19.668	680
19.694	433	19.718	661
19.744	457	19.769	641
19.795	479	19.819	619
19.845	507	19.871	592
19.896	543	19.922	568
19.946	566	19.972	538
19.998	594	20.023	509
20.048	616	20.073	495
20.099	633	20.125	470
20.149	645	20.175	469
20.200	653	20.226	454
20.251	654	20.276	458
20.302	647	20.327	467
20.352	632	20.378	477
20.403	613	20.429	499
20.453	591	20.479	519
20.505	562	20.530	546
20.555	545	20.580	568
20.606	513	20.632	596
20.656	490	20.682	620
20.707	456	20.733	645
20.757	430	20.783	665
20.809	425	20.834	678
20.859	418	20.884	679
20.910	414	20.936	686
20.960	418	20.986	680
21.011	428	21.037	673
21.062	444	21.087	652
21.113	464	21.138	636
21.163	489	21.189	610
21.214	518	21.240	584
21.264	544	21.290	558
21.316	569	21.341	533
21.366	594	21.391	510
21.417	618	21.443	487
21.467	638	21.493	476
21.518	648	21.544	466
21.568	652	21.594	459
21.620	651	21.645	464
21.670	644	21.695	476
21.721	627	21.747	485
21.771	611	21.797	506
21.822	591	21.848	517
21.873	563	21.898	550
21.924	534	21.949	578
21.974	509	22.000	603
22.025	481	22.051	625
22.075	455	22.101	649
22.127	440	22.152	661
22.177	423	22.202	670
22.228	416	22.254	679
22.278	412	22.304	680
22.329	419	22.355	672
22.379	434	22.405	657
22.431	446	22.456	647
22.481	467	22.506	625
22.532	492	22.558	605
22.582	517	22.608	581
22.633	547	22.659	547
22.684	573	22.709	531
22.735	601	22.760	506
22.785	619	22.811	487
22.836	638	22.862	474
22.886	646	22.912	468
22.938	654	22.963	466
22.988	655	23.013	466
23.039	637	23.065	477
23.089	627	23.115	491
23.140	606	23.166	507
23.191	587	23.216	529
23.242	563	23.267	555
23.292	529	23.317	585
23.343	504	23.369	602
23.393	477	23.419	626
23.444	458	23.470	650
23.495	436	23.520	668
23.546	423	23.571	674
23.596	417	23.622	678
23.647	419	23.673	675
23.697	412	23.723	667
23.749	429	23.774	657
23.799	448	23.824	639
23.850	473	23.876	623
23.900	496	23.926	590
23.951	519	23.977	568
24.002	547	24.027	545
24.053	575	24.078	526
24.103	599	24.128	495
24.154	619	24.180	487
24.204	636	24.230	474
24.255	648	24.281	467
24.306	652	24.331	465
24.357	646	24.382	472
24.408	635	24.433	481
24.458	627	24.484	497
24.509	607	24.534	522
24.560	581	24.585	540
24.611	556	24.635	568
24.661	527	24.687	585
24.712	496	24.737	607
24.762	469	24.788	630
24.814	452	24.838	649
24.864	432	24.889	660
24.915	423	24.939	668
24.965	417	24.991	672
25.016	415	25.041	671
25.066	421	25.092	663
25.118	435	25.142	651
25.168	449	25.193	631
25.219	473	25.244	611
25.269	498	25.295	587
25.320	529	25.345	561
25.371	554	25.396	538
25.422	578	25.446	515
25.472	601	25.498	494
25.523	619	25.548	484
25.573	635	25.599	469
25.625	644	25.649	467
25.675	649	25.700	460
25.726	645	25.751	475
25.776	630	25.802	485
25.827	619	25.852	500
25.877	600	25.903	521
25.929	572	25.953	545
25.979	558	26.004	569
26.030	526	26.055	593
26.080	495	26.106	616
26.131	474	26.156	636
26.182	450	26.207	652
26.233	434	26.257	664
26.283	423	26.309	673
26.334	416	26.359	670
26.384	418	26.410	668
26.436	426	26.460	662
26.486	436	26.511	639
26.537	454	26.562	623
26.587	474	26.613	603
26.638	500	26.663	579
26.688	527	26.714	555
26.740	553	26.764	531
26.790	584	26.815	510
26.841	604	26.866	493
26.891	623	26.917	479
26.942	634	26.967	471
26.993	642	27.018	470
27.044	646	27.068	467
27.094	642	27.120	475
27.145	631	27.170	496
27.195	616	27.221	503
27.247	594	27.271	529
27.297	572	27.322	551
27.348	547	27.373	575
27.398	522	27.424	599
27.449	500	27.475	620
27.499	474	27.525	640
27.551	449	27.576	653
27.601	437	27.626	664
27.652	422	27.678	671
27.702	419	27.728	670
27.753	421	27.779	666
27.804	427	27.829	655
27.855	441	27.880	642
27.905	454	27.931	619
27.956	479	27.982	597
28.006	503	28.032	573
28.058	528	28.083	548
28.108	554	28.133	529
28.159	583	28.185	506
28.209	602	28.235	489
28.260	626	28.286	480
28.311	628	28.336	468
28.362	649	28.387	469
28.412	642	28.437	469
28.463	637	28.489	477
28.513	626	28.539	497
28.564	613	28.590	512
28.615	592	28.640	538
28.666	568	28.691	559
28.716	544	28.742	574
28.767	515	28.793	607
28.817	492	28.843	627
28.869	470	28.894	642
28.919	449	28.944	654
28.970	434	28.996	666
29.020	424	29.046	671
29.071	420	29.097	668
29.122	425	29.147	661
29.173	433	29.198	651
29.223	443	29.248	629
29.274	461	29.300	619
29.324	484	29.350	591
29.375	507	29.401	571
29.426	534	29.451	539
29.477	557	29.502	517
29.527	582	29.553	501
29.578	604	29.604	490
29.628	618	29.654	474
29.680	630	29.705	467
29.730	639	29.755	466
29.781	644	29.807	473
29.831	636	29.857	484
29.882	627	29.908	499
29.933	606	29.958	520
29.984	586	30.009	541
30.034	565	30.059	562
30.085	540	30.111	581
30.135	515	30.161	602
30.186	495	30.212	634
30.237	468	30.262	651
30.288	448	30.313	661
30.338	436	30.364	666
30.389	427	30.415	670
30.439	426	30.465	661
30.491	429	30.516	659
30.541	431	30.566	646
30.592	445	30.618	627
30.642	467	30.668	608
30.693	486	30.719	584
30.744	511	30.769	558
30.795	538	30.820	537
30.845	560	30.871	514
30.896	583	30.922	506
30.946	602	30.972	483
30.997	618	31.023	474
31.048	629	31.073	466
31.099	639	31.124	468
31.150	648	31.175	475
31.200	627	31.226	485
31.251	619	31.276	501
31.302	602	31.327	519
31.353	576	31.377	543
31.403	562	31.429	568
31.454	535	31.479	590
31.504	513	31.530	619
31.556	488	31.580	627
31.606	468	31.631	643
31.657	449	31.682	656
31.707	436	31.733	661
31.758	430	31.783	664
31.808	427	31.834	665
31.860	430	31.884	656
31.910	440	31.935	642
31.961	452	31.986	624
32.011	470	32.037	601
32.062	486	32.087	578
32.113	507	32.138	552
32.164	535	32.188	531
32.214	564	32.240	511
32.265	586	32.290	492
32.315	603	32.341	479
32.367	618	32.391	468
32.417	628	32.442	473
32.468	632	32.493	466
32.518	632	32.544	475
32.569	623	32.594	485
32.619	614	32.645	499
32.671	595	32.695	526
32.721	577	32.746	548
32.772	555	32.797	572
32.822	530	32.848	595
32.873	511	32.898	620
32.924	485	32.949	638
32.975	466	32.999	653
33.025	448	33.051	667
33.076	437	33.101	670
33.126	433	33.152	672
33.178	431	33.202	665
33.228	435	33.253	651
33.279	444	33.304	637
33.329	457	33.355	619
33.380	476	33.405	597
33.431	497	33.456	574
33.482	519	33.506	550
33.532	540	33.557	527
33.583	558	33.608	505
33.633	592	33.659	492
33.684	607	33.709	476
33.735	616	33.760	468
33.786	630	33.810	466
33.836	627	33.862	466
33.887	627	33.912	473
33.937	620	33.963	493
33.989	610	34.013	511
34.039	592	34.064	533
34.090	572	34.115	557
34.140	551	34.166	574
34.191	527	34.217	600
34.242	505	34.267	621
34.293	480	34.318	640
34.343	466	34.368	655
34.394	447	34.420	665
34.444	441	34.470	670
34.495	437	34.521	669
34.546	431	34.571	664
34.597	439	34.622	651
34.647	449	34.673	644
34.698	463	34.724	611
34.748	480	34.774	589
34.800	502	34.825	566
34.850	524	34.875	549
34.901	549	34.927	524
34.951	567	34.977	502
35.002	584	35.028	486
35.053	603	35.078	474
35.104	616	35.129	467
35.154	618	35.179	467
35.205	618	35.231	470
35.255	626	35.281	480
35.306	620	35.332	495
35.357	602	35.382	512
35.408	587	35.433	533
35.458	566	35.484	560
35.509	545	35.535	573
35.559	519	35.585	602
35.611	501	35.636	622
35.661	475	35.686	642
35.712	464	35.738	657
35.762	448	35.788	667
35.813	441	35.839	670
35.864	433	35.889	668
35.915	440	35.940	658
35.965	442	35.991	649
36.016	453	36.042	631
36.066	469	36.092	613
36.117	487	36.143	591
36.168	507	36.193	568
36.219	531	36.244	547
36.269	549	36.295	520
36.320	571	36.346	499
36.370	588	36.396	480
36.422	603	36.447	471
36.472	615	36.497	466
36.523	620	36.549	466
36.573	623	36.599	471
36.624	620	36.650	476
36.675	604	36.700	494
36.726	599	36.751	513
36.776	571	36.802	536
36.827	563	36.853	559
36.877	539	36.903	583
36.928	520	36.954	605
36.979	498	37.004	624
37.030	479	37.055	649
37.080	463	37.106	659
37.131	450	37.157	668
37.181	442	37.207	669
37.233	442	37.258	667
37.283	442	37.308	659
37.334	448	37.360	646
37.384	461	37.410	628
37.435	476	37.461	608
37.486	493	37.511	586
37.537	509	37.562	563
37.587	534	37.613	537
37.638	554	37.664	520
37.688	573	37.714	499
37.739	591	37.765	481
37.790	602	37.815	472
37.841	613	37.866	471
37.891	619	37.917	455
37.942	615	37.968	471
37.992	613	38.018	484
38.044	606	38.069	495
38.094	587	38.119	517
38.145	573	38.171	540
38.195	558	38.221	562
38.246	535	38.272	590
38.297	514	38.322	609
38.348	493	38.373	630
38.398	469	38.424	644
38.449	462	38.475	659
38.499	451	38.525	667
38.551	444	38.576	669
38.601	442	38.626	665
38.652	446	38.677	660
38.702	453	38.728	644
38.753	464	38.779	626
38.803	473	38.829	607
38.855	495	38.880	583
38.905	521	38.930	563
38.956	545	38.982	535
39.006	562	39.032	514
39.057	577	39.083	496
39.108	597	39.133	479
39.159	605	39.184	470
39.209	607	39.235	467
39.260	616	39.286	466
39.310	615	39.336	472
39.362	609	39.387	491
39.412	600	39.437	509
39.463	588	39.488	525
39.513	569	39.539	542
39.564	549	39.590	561
39.614	527	39.640	589
39.666	511	39.691	611
39.716	494	39.741	631
39.767	471	39.793	644
39.817	462	39.843	660
39.868	448	39.894	670
39.919	447	39.944	664
39.970	444	39.995	662
40.020	449	40.046	655
40.071	458	40.097	643
40.121	469	40.147	625
40.173	485	40.198	604
40.223	505	40.248	569
40.274	524	40.299	555
40.324	544	40.350	534
40.375	561	40.401	510
40.425	572	40.451	492
40.477	594	40.502	480
40.527	605	40.552	471
40.578	612	40.604	466
40.628	617	40.654	475
40.679	609	40.705	478
40.730	604	40.755	489
40.781	595	40.806	505
40.831	580	40.857	525
40.882	562	40.908	544
40.932	543	40.958	569
40.984	523	41.009	590
41.034	505	41.059	621
41.085	481	41.111	634
41.135	473	41.161	649
41.186	458	41.212	659
41.236	458	41.262	666
41.288	445	41.313	665
41.338	450	41.363	662
41.389	454	41.415	652
41.439	460	41.465	637
41.490	475	41.516	621
41.541	492	41.566	596
41.592	515	41.617	570
41.642	528	41.668	552
41.693	549	41.719	528
41.743	566	41.769	516
41.795	578	41.820	492
41.845	597	41.870	480
41.896	606	41.922	472
41.946	613	41.972	469
41.997	611	42.023	469
42.047	608	42.073	478
42.099	602	42.124	490
42.149	583	42.174	511
42.200	574	42.226	525
42.250	556	42.276	549
42.301	538	42.327	572
42.352	519	42.377	593
42.403	498	42.428	613
42.453	483	42.479	634
42.504	467	42.530	644
42.554	458	42.580	656
42.606	451	42.631	663
42.656	450	42.681	664
42.707	454	42.733	660
42.757	457	42.783	650
42.808	466	42.834	631
42.858	479	42.884	617
42.910	492	42.935	600
42.960	517	42.985	573
43.011	534	43.037	551
43.061	553	43.087	526
43.112	570	43.138	503
43.163	585	43.188	492
43.214	598	43.239	478
43.264	606	43.290	477
43.315	611	43.341	468
43.365	611	43.391	472
43.417	607	43.442	480
43.467	598	43.492	492
43.518	581	43.544	506
43.568	568	43.594	533
43.619	553	43.645	551
43.669	533	43.695	573
43.721	514	43.746	595
43.772	497	43.796	619
43.822	480	43.848	636
43.873	466	43.898	648
43.923	457	43.949	655
43.975	450	43.999	663
44.025	449	44.050	663
44.076	453	44.101	657
44.126	461	44.152	646
44.177	471	44.202	632
44.228	489	44.253	612
44.279	496	44.303	592
44.329	521	44.355	570
44.380	543	44.405	547
44.430	556	44.456	526
44.482	579	44.506	506
44.532	588	44.557	497
44.583	599	44.607	482
44.633	606	44.659	475
44.684	610	44.709	471
44.734	609	44.760	468
44.786	603	44.810	474
44.836	593	44.861	495
44.887	581	44.912	511
44.937	573	44.963	532
44.988	548	45.013	553
45.039	534	45.064	575
45.090	509	45.114	597
45.140	497	45.166	616
45.191	473	45.216	635
45.241	463	45.267	647
45.293	459	45.317	657
45.343	450	45.368	661
45.394	454	45.418	660
45.444	457	45.470	653
45.495	460	45.520	639
45.545	474	45.571	630
45.597	488	45.621	615
45.647	513	45.672	591
45.698	525	45.723	573
45.748	547	45.774	545
45.799	568	45.824	527
45.850	578	45.875	507
45.901	588	45.925	492
45.951	604	45.977	479
46.002	608	46.027	476
46.052	609	46.078	475
46.104	606	46.128	476
46.154	600	46.179	487
46.205	589	46.229	506
46.255	575	46.281	520
46.306	558	46.331	542
46.356	544	46.382	556
46.408	523	46.432	580
46.458	505	46.483	598
46.509	483	46.534	619
46.559	470	46.585	635
46.610	460	46.635	647
46.661	458	46.686	654
