#Creator: pendulumEventBuffer
#Creation time: Thu Mar 20 14:45:03 2025
#Time	Period	Transit time
#[s]	[s]	[s]
2.495317	2.158845	0.022694
3.574728	2.158815	0.022772
4.654132	2.158809	0.022844
5.733537	2.158745	0.022914
6.812877	2.158642	0.022982
7.892179	2.158598	0.023046
8.971475	2.158556	0.023118
10.050735	2.158510	0.023190
11.129985	2.158475	0.023258
12.209210	2.158425	0.023324
13.288410	2.158381	0.023392
14.367591	2.158350	0.023462
15.446760	2.158303	0.023532
16.525894	2.158247	0.023600
17.605007	2.158202	0.023670
18.684096	2.158153	0.023740
19.763160	2.158101	0.023804
20.842197	2.158058	0.023874
21.921218	2.158012	0.023952
23.000209	2.157961	0.024026
24.079179	2.157902	0.024098
25.158111	2.157839	0.024170
26.237018	2.157788	0.024240
27.315899	2.157739	0.024310
28.394757	2.157690	0.024382
29.473589	2.157652	0.024458
30.552409	2.157625	0.024534
31.631214	2.157596	0.024604
32.710005	2.157552	0.024678
33.788766	2.157506	0.024756
34.867511	2.157464	0.024830
35.946230	2.157423	0.024904
37.024934	2.157372	0.024980
38.103602	2.157315	0.025056
39.182249	2.157277	0.025134
40.260879	2.157242	0.025206
41.339491	2.157189	0.025278
42.418068	2.157152	0.025356
43.496643	2.157124	0.025438
44.575192	2.157080	0.025516
45.653723	2.157029	0.025594
46.732221	2.156983	0.025674
47.810706	2.156938	0.025752
48.889159	2.156873	0.025830
49.967579	2.156822	0.025910
51.045981	2.156792	0.025990
52.124371	2.156757	0.026070
53.202738	2.156722	0.026152
54.281093	2.156659	0.026230
55.359397	2.156602	0.026306
56.437695	2.156561	0.026390
57.515958	2.156536	0.026476
58.594231	2.156518	0.026554
59.672476	2.156472	0.026632
60.750703	2.156434	0.026714
61.828910	2.156397	0.026800
62.907100	2.156355	0.026888
63.985265	2.156313	0.026970
65.063413	2.156279	0.027054
66.141544	2.156237	0.027140
67.219650	2.156193	0.027224
68.297737	2.156162	0.027310
69.375812	2.156119	0.027400
70.453856	2.156075	0.027488
71.531887	2.156033	0.027574
72.609889	2.155995	0.027662
73.687882	2.155964	0.027752
74.765853	2.155930	0.027842
75.843812	2.155889	0.027928
76.921742	2.155844	0.028016
77.999656	2.155810	0.028112
79.077552	2.155779	0.028204
80.155435	2.155734	0.028290
81.233286	2.155719	0.028380
82.311154	2.155685	0.028472
83.388971	2.155625	0.028566
84.466779	2.155595	0.028658
85.544566	2.155561	0.028752
86.622340	2.155500	0.028848
87.700066	2.155443	0.028944
88.777783	2.155400	0.029038
89.855466	2.155337	0.029132
90.933120	2.155303	0.029228
92.010769	2.155273	0.029322
93.088393	2.155233	0.029414
94.166002	2.155208	0.029512
95.243601	2.155171	0.029610
96.321173	2.155131	0.029706
97.398732	2.155068	0.029804
98.476241	2.154992	0.029902
99.553724	2.154948	0.030000
100.631189	2.154927	0.030098
101.708651	2.154902	0.030198
102.786091	2.154868	0.030298
103.863519	2.154835	0.030394
104.940926	2.154801	0.030496
106.018320	2.154765	0.030600
107.095691	2.154744	0.030702
108.173064	2.154720	0.030800
109.250411	2.154679	0.030902
110.327743	2.154629	0.031006
111.405040	2.154617	0.031108
112.482360	2.154601	0.031212
113.559641	2.154552	0.031314
114.636912	2.154529	0.031420
115.714170	2.154494	0.031528
116.791406	2.154462	0.031632
117.868632	2.154431	0.031740
118.945837	2.154395	0.031846
120.023027	2.154360	0.031958
121.100197	2.154341	0.032070
122.177368	2.154315	0.032176
123.254512	2.154259	0.032288
124.331627	2.154226	0.032402
125.408738	2.154198	0.032512
126.485825	2.154173	0.032622
127.562911	2.154138	0.032734
128.639963	2.154108	0.032846
129.717019	2.154084	0.032962
130.794047	2.154048	0.033082
131.871067	2.154017	0.033198
132.948064	2.153994	0.033312
134.025061	2.153980	0.033426
135.102044	2.153930	0.033544
136.178991	2.153884	0.033662
137.255928	2.153871	0.033784
138.332862	2.153847	0.033908
139.409775	2.153815	0.034026
140.486677	2.153764	0.034142
141.563539	2.153767	0.034262
142.640444	2.153761	0.034388
143.717300	2.153690	0.034516
144.794134	2.153644	0.034632
145.870944	2.153645	0.034752
146.947779	2.153622	0.034882
148.024566	2.153538	0.035012
149.101317	2.153527	0.035138
150.178093	2.153517	0.035266
151.254834	2.153461	0.035392
152.331554	2.153368	0.035520
153.408202	2.153278	0.035652
154.484832	2.153252	0.035784
155.561454	2.153218	0.035916
156.638050	2.153195	0.036052
157.714649	2.153180	0.036182
158.791230	2.153116	0.036312
159.867765	2.153040	0.036442
160.944270	2.153061	0.036580
162.020826	2.153021	0.036716
163.097291	2.152945	0.036850
164.173771	2.152727	0.036990
165.250018	2.152515	0.037100
166.326286	2.152465	0.037216
167.402483	2.152380	0.037322
168.478666	2.152328	0.037424
169.554811	2.152304	0.037522
170.630970	2.152292	0.037624
171.707103	2.152258	0.037726
172.783228	2.152238	0.037828
173.859341	2.152221	0.037930
174.935449	2.152161	0.038030
176.011502	2.152133	0.038128
177.087582	2.152087	0.038220
178.163589	2.152000	0.038318
179.239582	2.151994	0.038428
180.315583	2.151980	0.038522
181.391562	2.151936	0.038616
182.467519	2.151916	0.038714
183.543478	2.151890	0.038808
184.619409	2.151850	0.038906
185.695328	2.151822	0.039008
186.771231	2.151815	0.039110
187.847143	2.151791	0.039210
188.923022	2.151763	0.039308
189.998906	2.151756	0.039404
191.074778	2.151749	0.039500
192.150655	2.151720	0.039598
193.226498	2.151687	0.039700
194.302342	2.151671	0.039800
195.378169	2.151648	0.039898
196.453990	2.151628	0.040000
197.529797	2.151609	0.040106
198.605599	2.151562	0.040210
199.681359	2.151559	0.040310
200.757158	2.151587	0.040408
201.832946	2.151559	0.040512
202.908717	2.151523	0.040614
203.984469	2.151511	0.040718
205.060228	2.151501	0.040824
206.135970	2.151482	0.040928
207.211710	2.151445	0.041032
208.287415	2.151416	0.041138
209.363126	2.151428	0.041240
210.438843	2.151396	0.041342
211.514522	2.151399	0.041452
212.590242	2.151411	0.041560
213.665933	2.151362	0.041658
214.741604	2.151364	0.041764
215.817297	2.151299	0.041874
216.892903	2.151281	0.041978
217.968578	2.151320	0.042088
219.044223	2.151275	0.042194
220.119853	2.151252	0.042306
221.195475	2.151175	0.042418
222.271028	2.151109	0.042524
223.346584	2.151119	0.042632
224.422147	2.151104	0.042742
225.497688	2.151080	0.042848
226.573227	2.151066	0.042954
227.648754	2.151028	0.043060
228.724255	2.150999	0.043166
229.799753	2.150959	0.043274
230.875214	2.150929	0.043380
231.950682	2.150932	0.043484
233.026146	2.150899	0.043588
234.101581	2.150870	0.043698
235.177016	2.150832	0.043804
236.252413	2.150814	0.043906
237.327830	2.150799	0.044012
238.403212	2.150758	0.044124
239.478588	2.150756	0.044236
240.553968	2.150740	0.044340
241.629328	2.150718	0.044448
242.704686	2.150720	0.044556
243.780048	2.150689	0.044656
244.855375	2.150663	0.044762
245.930711	2.150667	0.044874
247.006042	2.150658	0.044984
248.081369	2.150651	0.045090
249.156693	2.150662	0.045198
250.232031	2.150602	0.045310
251.307295	2.150560	0.045426
252.382591	2.150597	0.045534
253.457892	2.150538	0.045648
254.533129	2.150523	0.045766
255.608415	2.150544	0.045870
256.683673	2.150512	0.045974
257.758927	2.150490	0.046078
258.834163	2.150466	0.046190
259.909393	2.150343	0.046310
260.984506	2.150196	0.046408
262.059589	2.150202	0.046506
263.134708	2.150203	0.046612
264.209792	2.150183	0.046720
265.284891	2.150187	0.046822
266.359979	2.150159	0.046922
267.435050	2.150139	0.047028
268.510118	2.150124	0.047132
269.585174	2.150121	0.047240
270.660239	2.150109	0.047346
271.735283	2.150093	0.047450
272.810332	2.150080	0.047552
273.885363	2.150096	0.047654
274.960428	2.150100	0.047764
276.035463	2.150031	0.047866
277.110459	2.149996	0.047970
278.185459	2.149967	0.048074
279.260426	2.149951	0.048180
280.335410	2.149991	0.048288
281.410417	2.149999	0.048390
282.485409	2.149960	0.048498
283.560377	2.149936	0.048602
284.635345	2.149947	0.048702
285.710324	2.149947	0.048804
286.785292	2.149930	0.048912
287.860254	2.149917	0.049024
288.935209	2.149899	0.049130
290.010153	2.149887	0.049238
291.085096	2.149887	0.049356
292.160040	2.149890	0.049464
293.234986	2.149874	0.049564
294.309914	2.149857	0.049672
295.384843	2.149852	0.049782
296.459766	2.149852	0.049896
297.534695	2.149842	0.050006
298.609608	2.149835	0.050108
299.684530	2.149782	0.050216
300.759390	2.149819	0.050332
301.834349	2.149850	0.050450
302.909240	2.149782	0.050564
303.984131	2.149802	0.050674
305.059042	2.149759	0.050784
306.133890	2.149749	0.050892
307.208791	2.149789	0.051002
308.283679	2.149760	0.051118
309.358551	2.149741	0.051230
310.433420	2.149734	0.051340
311.508285	2.149736	0.051454
312.583156	2.149724	0.051572
313.658009	2.149706	0.051686
314.732862	2.149719	0.051800
315.807728	2.149723	0.051920
316.882585	2.149696	0.052038
317.957424	2.149685	0.052152
319.032270	2.149689	0.052268
320.107113	2.149681	0.052386
321.181951	2.149661	0.052510
322.256774	2.149663	0.052624
323.331614	2.149669	0.052736
324.406443	2.149661	0.052858
325.481275	2.149652	0.052978
326.556095	2.149644	0.053102
327.630919	2.149628	0.053222
328.705723	2.149598	0.053334
329.780517	2.149590	0.053454
330.855313	2.149606	0.053578
331.930123	2.149584	0.053702
333.004897	2.149555	0.053826
334.079678	2.149545	0.053944
335.154442	2.149627	0.054064
336.229305	2.149629	0.054190
337.304071	2.149555	0.054314
338.378860	2.149556	0.054432
339.453627	2.149552	0.054554
340.528412	2.149542	0.054680
341.603169	2.149544	0.054806
342.677956	2.149556	0.054932
343.752725	2.149530	0.055062
344.827486	2.149510	0.055192
345.902235	2.149504	0.055310
346.976990	2.149479	0.055424
