#Creator: pendulumEventBuffer
#Creation time: Thu Mar 20 14:45:03 2025
#Time	Period	Transit time
#[s]	[s]	[s]
5.985879	2.161518	0.020002
7.066615	2.161432	0.020058
8.147311	2.161357	0.020114
9.227972	2.161328	0.020176
10.308639	2.161282	0.020234
11.389254	2.161174	0.020288
12.469813	2.161107	0.020346
13.550361	2.161060	0.020406
14.630873	2.160988	0.020466
15.711349	2.160922	0.020526
16.791795	2.160872	0.020586
17.872221	2.160817	0.020646
18.952612	2.160755	0.020704
20.032976	2.160697	0.020764
21.113309	2.160631	0.020826
22.193607	2.160564	0.020886
23.273873	2.160509	0.020946
24.354116	2.160453	0.021008
25.434326	2.160395	0.021064
26.514511	2.160338	0.021122
27.594664	2.160282	0.021188
28.674793	2.160227	0.021250
29.754891	2.160168	0.021306
30.834961	2.160117	0.021370
31.915008	2.160058	0.021436
32.995019	2.159983	0.021498
34.074991	2.159946	0.021558
35.154965	2.159888	0.021618
36.234879	2.159822	0.021682
37.314787	2.159773	0.021750
38.394652	2.159694	0.021816
39.474481	2.159653	0.021878
40.554305	2.159639	0.021938
41.634120	2.159579	0.022004
42.713884	2.159508	0.022072
43.793628	2.159446	0.022136
44.873330	2.159385	0.022204
45.953013	2.159352	0.022270
47.032682	2.159305	0.022332
48.112318	2.159228	0.022400
49.191910	2.159170	0.022468
50.271488	2.159131	0.022536
51.351041	2.159084	0.022602
52.430572	2.159030	0.022668
53.510071	2.158958	0.022738
54.589530	2.158886	0.022804
55.668957	2.158840	0.022870
56.748370	2.158800	0.022940
57.827757	2.158748	0.023010
58.907118	2.158690	0.023080
59.986447	2.158636	0.023150
61.065754	2.158593	0.023216
62.145040	2.158549	0.023284
63.224303	2.158501	0.023354
64.303541	2.158464	0.023426
65.382767	2.158415	0.023498
66.461956	2.158361	0.023568
67.541128	2.158306	0.023640
68.620262	2.158249	0.023712
69.699377	2.158211	0.023786
70.778473	2.158162	0.023858
71.857539	2.158097	0.023930
72.936570	2.158045	0.024004
74.015584	2.158011	0.024076
75.094581	2.157963	0.024146
76.173547	2.157906	0.024222
77.252487	2.157864	0.024294
78.331411	2.157814	0.024366
79.410301	2.157757	0.024446
80.489168	2.157727	0.024520
81.568028	2.157706	0.024588
82.646874	2.157645	0.024664
83.725673	2.157590	0.024742
84.804464	2.157555	0.024820
85.883228	2.157502	0.024900
86.961966	2.157449	0.024976
88.040677	2.157405	0.025054
89.119371	2.157365	0.025130
90.198042	2.157323	0.025204
91.276694	2.157279	0.025284
92.355321	2.157229	0.025366
93.433923	2.157167	0.025442
94.512488	2.157119	0.025520
95.591042	2.157075	0.025600
96.669563	2.157027	0.025682
97.748069	2.156991	0.025766
98.826554	2.156950	0.025844
99.905019	2.156911	0.025926
100.983465	2.156875	0.026010
102.061894	2.156832	0.026092
103.140297	2.156790	0.026174
104.218684	2.156752	0.026256
105.297049	2.156710	0.026342
106.375394	2.156674	0.026428
107.453723	2.156646	0.026514
108.532040	2.156591	0.026596
109.610314	2.156535	0.026680
110.688575	2.156513	0.026770
111.766827	2.156479	0.026858
112.845054	2.156438	0.026944
113.923265	2.156408	0.027030
115.001462	2.156348	0.027120
116.079613	2.156301	0.027210
117.157763	2.156285	0.027298
118.235898	2.156255	0.027388
119.314018	2.156207	0.027476
120.392105	2.156149	0.027566
121.470167	2.156095	0.027658
122.548200	2.156058	0.027748
123.626225	2.156027	0.027838
124.704227	2.155980	0.027930
125.782205	2.155900	0.028022
126.860127	2.155894	0.028118
127.938099	2.155900	0.028214
129.016027	2.155820	0.028306
130.093919	2.155801	0.028402
131.171828	2.155778	0.028496
132.249697	2.155718	0.028586
133.327546	2.155681	0.028680
134.405378	2.155627	0.028772
135.483173	2.155562	0.028866
136.560940	2.155509	0.028956
137.638682	2.155478	0.029048
138.716418	2.155443	0.029144
139.794125	2.155396	0.029242
140.871814	2.155373	0.029340
141.949498	2.155355	0.029436
143.027169	2.155297	0.029530
144.104795	2.155257	0.029626
145.182426	2.155240	0.029728
146.260035	2.155205	0.029826
147.337631	2.155170	0.029922
148.415205	2.155138	0.030018
149.492769	2.155114	0.030118
150.570319	2.155068	0.030222
151.647837	2.155026	0.030326
152.725345	2.155000	0.030426
153.802837	2.154973	0.030530
154.880318	2.154936	0.030636
155.957773	2.154897	0.030742
157.035215	2.154834	0.030846
158.112607	2.154758	0.030950
159.189973	2.154730	0.031050
160.267337	2.154718	0.031154
161.344691	2.154694	0.031262
162.422031	2.154658	0.031366
163.499349	2.154615	0.031474
164.576646	2.154569	0.031580
165.653918	2.154544	0.031684
166.731190	2.154511	0.031792
167.808429	2.154473	0.031902
168.885663	2.154459	0.032010
169.962888	2.154420	0.032120
171.040083	2.154374	0.032226
172.117262	2.154378	0.032340
173.194461	2.154355	0.032458
174.271617	2.154312	0.032570
175.348773	2.154287	0.032682
176.425904	2.154253	0.032792
177.503026	2.154238	0.032904
178.580142	2.154188	0.033020
179.657214	2.154144	0.033136
180.734286	2.154130	0.033248
181.811344	2.154117	0.033364
182.888403	2.154078	0.033486
183.965422	2.154031	0.033600
185.042434	2.154008	0.033716
186.119430	2.153965	0.033836
187.196399	2.153947	0.033958
188.273377	2.153923	0.034082
189.350322	2.153897	0.034200
190.427274	2.153858	0.034320
191.504180	2.153818	0.034444
192.581092	2.153787	0.034568
193.657967	2.153745	0.034690
194.734837	2.153670	0.034818
195.811637	2.153589	0.034942
196.888426	2.153560	0.035064
197.965197	2.153538	0.035186
199.041964	2.153506	0.035312
200.118703	2.153466	0.035442
201.195430	2.153440	0.035568
202.272143	2.153406	0.035690
203.348836	2.153372	0.035816
204.425515	2.153360	0.035950
205.502196	2.153354	0.036088
206.578869	2.153310	0.036218
207.655506	2.153262	0.036348
208.732131	2.153233	0.036482
209.808739	2.153197	0.036618
210.885328	2.153172	0.036752
211.961911	2.153150	0.036886
213.038478	2.153062	0.037020
214.114973	2.152972	0.037162
215.191450	2.152924	0.037300
216.267897	2.152871	0.037434
217.344321	2.152844	0.037570
218.420741	2.152811	0.037702
219.497132	2.152767	0.037840
220.573508	2.152745	0.037984
221.649877	2.152675	0.038122
222.726183	2.152595	0.038254
223.802472	2.152370	0.038384
224.878553	2.152177	0.038486
225.954649	2.152184	0.038606
227.030737	2.152146	0.038718
228.106795	2.152110	0.038818
229.182847	2.152077	0.038918
230.258872	2.152056	0.039028
231.334903	2.152046	0.039134
232.410918	2.152013	0.039236
233.486916	2.151986	0.039344
234.562904	2.151966	0.039448
235.638882	2.151952	0.039552
236.714856	2.151924	0.039660
237.790806	2.151886	0.039768
238.866742	2.151845	0.039872
239.942651	2.151813	0.039970
241.018555	2.151786	0.040078
242.094437	2.151746	0.040186
243.170301	2.151715	0.040290
244.246152	2.151696	0.040392
245.321997	2.151679	0.040494
246.397831	2.151638	0.040598
247.473635	2.151633	0.040706
248.549464	2.151612	0.040812
249.625247	2.151581	0.040918
250.701045	2.151588	0.041022
251.776835	2.151569	0.041126
252.852614	2.151544	0.041236
253.928379	2.151532	0.041342
255.004146	2.151514	0.041444
256.079893	2.151491	0.041550
257.155637	2.151472	0.041662
258.231365	2.151435	0.041770
259.307072	2.151428	0.041872
260.382793	2.151421	0.041974
261.458493	2.151362	0.042086
262.534155	2.151353	0.042194
263.609846	2.151388	0.042304
264.685543	2.151367	0.042418
265.761213	2.151333	0.042534
266.836876	2.151316	0.042648
267.912529	2.151285	0.042758
268.988161	2.151265	0.042870
270.063794	2.151247	0.042980
271.139408	2.151227	0.043096
272.215021	2.151204	0.043214
273.290612	2.151184	0.043328
274.366205	2.151101	0.043442
275.441713	2.151024	0.043550
276.517229	2.151024	0.043662
277.592737	2.150998	0.043770
278.668227	2.150984	0.043874
279.743721	2.150987	0.043986
280.819214	2.150938	0.044100
281.894659	2.150891	0.044210
282.970105	2.150923	0.044318
284.045582	2.150925	0.044432
285.121030	2.150865	0.044544
286.196447	2.150855	0.044658
287.271885	2.150871	0.044774
288.347318	2.150881	0.044884
289.422766	2.150864	0.045000
290.498182	2.150800	0.045116
291.573566	2.150784	0.045228
292.648966	2.150803	0.045344
293.724369	2.150786	0.045454
294.799752	2.150764	0.045564
295.875133	2.150766	0.045686
296.950518	2.150705	0.045804
298.025838	2.150654	0.045912
299.101172	2.150666	0.046028
300.176504	2.150618	0.046140
301.251790	2.150571	0.046252
302.327075	2.150587	0.046374
303.402377	2.150604	0.046490
304.477679	2.150594	0.046598
305.552971	2.150579	0.046714
306.628258	2.150573	0.046832
307.703544	2.150555	0.046944
308.778813	2.150528	0.047058
309.854072	2.150531	0.047180
310.929344	2.150530	0.047308
312.004602	2.150503	0.047436
313.079847	2.150456	0.047554
314.155058	2.150433	0.047676
315.230280	2.150428	0.047800
316.305486	2.150415	0.047916
317.380695	2.150387	0.048034
318.455873	2.150357	0.048158
319.531052	2.150368	0.048292
320.606241	2.150349	0.048414
321.681401	2.150191	0.048530
322.756432	2.150044	0.048636
323.831445	2.150000	0.048746
324.906432	2.149983	0.048860
325.981428	2.149989	0.048968
327.056421	2.149968	0.049074
328.131396	2.149954	0.049184
329.206375	2.149961	0.049294
330.281357	2.149947	0.049402
331.356322	2.149950	0.049516
332.431307	2.149957	0.049626
333.506279	2.149944	0.049734
334.581251	2.149930	0.049846
335.656209	2.149919	0.049958
336.731170	2.149905	0.050072
337.806114	2.149896	0.050180
338.881066	2.149887	0.050288
339.956001	2.149879	0.050402
341.030945	2.149869	0.050514
342.105870	2.149859	0.050632
343.180804	2.149853	0.050748
344.255723	2.149857	0.050862
345.330661	2.149816	0.050978
346.405539	2.149805	0.051086
347.480466	2.149839	0.051196
348.555378	2.149795	0.051320
349.630261	2.149803	0.051438
350.705181	2.149814	0.051550
351.780075	2.149782	0.051666
352.854963	2.149779	0.051782
353.929854	2.149775	0.051896
355.004738	2.149775	0.052012
356.079629	2.149757	0.052130
357.154495	2.149752	0.052246
358.229381	2.149752	0.052366
359.304247	2.149745	0.052490
360.379126	2.149745	0.052608
361.453992	2.149711	0.052732
362.528837	2.149680	0.052854
363.603672	2.149693	0.052968
364.678530	2.149683	0.053088
365.753355	2.149686	0.053194
366.828216	2.149694	0.053316
367.903049	2.149663	0.053454
368.977879	2.149667	0.053582
370.052716	2.149658	0.053696
371.127537	2.149641	0.053810
372.202357	2.149646	0.053938
373.277183	2.149636	0.054058
374.351993	2.149623	0.054174
375.426806	2.149587	0.054292
376.501580	2.149580	0.054416
377.576386	2.149607	0.054548
378.651187	2.149589	0.054674
379.725975	2.149575	0.054786
380.800762	2.149569	0.054912
381.875544	2.149541	0.055052
382.950303	2.149540	0.055178
384.025084	2.149561	0.055300
385.099864	2.149571	0.055432
386.174655	2.149555	0.055558
387.249419	2.149530	0.055678
388.324185	2.149528	0.055810
389.398947	2.149528	0.055942
390.473713	2.149519	0.056070
391.548466	2.149517	0.056196
392.623230	2.149504	0.056328
393.697970	2.149481	0.056460
394.772711	2.149505	0.056586
395.847475	2.149511	0.056714
396.922222	2.149491	0.056844
397.996966	2.149482	0.056980
399.071704	2.149485	0.057112
400.146451	2.149482	0.057242
401.221186	2.149458	0.057380
402.295909	2.149452	0.057510
403.370638	2.149439	0.057640
404.445348	2.149438	0.057776
405.520076	2.149436	0.057908
406.594784	2.149428	0.058044
407.669504	2.149419	0.058184
408.744203	2.149401	0.058326
409.818905	2.149400	0.058466
410.893603	2.149402	0.058598
411.968307	2.149368	0.058734
413.042971	2.149404	0.058870
414.117711	2.149387	0.059010
415.192358	2.149337	0.059156
416.267048	2.149374	0.059292
417.341732	2.149359	0.059424
418.416407	2.149329	0.059570
419.491061	2.149327	0.059710
420.565734	2.149333	0.059852
421.640394	2.149334	0.060000
422.715068	2.149318	0.060144
423.789712	2.149346	0.060292
424.864414	2.149354	0.060432
425.939066	2.149312	0.060568
427.013726	2.149350	0.060704
428.088416	2.149370	0.060848
429.163096	2.149288	0.061000
430.237704	2.149254	0.061156
431.312350	2.149289	0.061316
432.386993	2.149281	0.061470
433.461631	2.149290	0.061618
434.536283	2.149259	0.061770
435.610890	2.149251	0.061928
436.685534	2.149295	0.062076
437.760185	2.149276	0.062222
438.834810	2.149230	0.062380
439.909415	2.149205	0.062538
440.984015	2.149219	0.062690
442.058634	2.149202	0.062840
443.133217	2.149193	0.062990
444.207827	2.149193	0.063150
445.282410	2.149167	0.063316
446.356994	2.149161	0.063468
447.431571	2.149160	0.063622
448.506154	2.149196	0.063772
449.580767	2.149223	0.063934
450.655377	2.149163	0.064102
451.729930	2.149154	0.064264
452.804531	2.149155	0.064426
453.879085	2.149150	0.064578
454.953681	2.149188	0.064734
456.028273	2.149143	0.064906
457.102824	2.149133	0.065072
458.177406	2.149127	0.065232
459.251951	2.149084	0.065406
460.326490	2.149084	0.065580
461.401035	2.149081	0.065742
462.475571	2.149095	0.065902
463.550130	2.149095	0.066064
464.624666	2.149062	0.066236
465.699192	2.149064	0.066408
466.773730	2.149042	0.066572
467.848234	2.148946	0.066748
468.922676	2.148882	0.066908
469.997116	2.148938	0.067060
471.071614	2.149013	0.067232
472.146129	2.148946	0.067410
473.220560	2.148838	0.067576
474.294967	2.148810	0.067734
475.369370	2.148832	0.067896
476.443799	2.148815	0.068058
477.518185	2.148786	0.068230
478.592585	2.148780	0.068398
479.666965	2.148769	0.068558
480.741354	2.148782	0.068728
481.815747	2.148746	0.068894
482.890100	2.148729	0.069052
483.964476	2.148775	0.069216
485.038875	2.148745	0.069382
486.113221	2.148701	0.069542
487.187576	2.148715	0.069712
488.261936	2.148724	0.069880
489.336300	2.148689	0.070048
490.410625	2.148684	0.070222
491.484984	2.148705	0.070384
492.559330	2.148701	0.070552
493.633685	2.148702	0.070730
494.708032	2.148689	0.070908
495.782374	2.148674	0.071084
496.856706	2.148694	0.071256
497.931068	2.148666	0.071432
499.005372	2.148659	0.071600
500.079727	2.148674	0.071774
501.154046	2.148633	0.071952
502.228360	2.148619	0.072120
503.302665	2.148669	0.072298
504.377029	2.148689	0.072478
505.451354	2.148643	0.072648
506.525672	2.148632	0.072820
507.599986	2.148631	0.073000
508.674303	2.148631	0.073178
509.748617	2.148633	0.073358
510.822936	2.148625	0.073544
511.897242	2.148629	0.073728
512.971565	2.148607	0.073906
514.045849	2.148587	0.074086
515.120152	2.148629	0.074268
516.194478	2.148602	0.074460
517.268754	2.148564	0.074648
518.343042	2.148577	0.074824
519.417331	2.148578	0.075002
520.491620	2.148617	0.075192
521.565948	2.148557	0.075396
522.640177	2.148538	0.075590
523.714486	2.148590	0.075772
524.788767	2.148567	0.075966
525.863053	2.148576	0.076162
526.937343	2.148566	0.076354
528.011619	2.148551	0.076546
529.085894	2.148516	0.076744
530.160135	2.148539	0.076926
